%Time(s),x
0.00000000e+00,1.01005017e-02
1.00000000e-02,1.02020134e-02
2.00000000e-02,1.03045453e-02
3.00000000e-02,1.04081077e-02
4.00000000e-02,1.05127110e-02
5.00000000e-02,1.06183655e-02
6.00000000e-02,1.07250818e-02
7.00000000e-02,1.08328707e-02
8.00000000e-02,1.09417428e-02
9.00000000e-02,1.10517092e-02
1.00000000e-01,1.11627807e-02
1.10000000e-01,1.12749685e-02
1.20000000e-01,1.13882838e-02
1.30000000e-01,1.15027380e-02
1.40000000e-01,1.16183424e-02
1.50000000e-01,1.17351087e-02
1.60000000e-01,1.18530485e-02
1.70000000e-01,1.19721736e-02
1.80000000e-01,1.20924960e-02
1.90000000e-01,1.22140276e-02
2.00000000e-01,1.23367806e-02
2.10000000e-01,1.24607673e-02
2.20000000e-01,1.25860001e-02
2.30000000e-01,1.27124915e-02
2.40000000e-01,1.28402542e-02
2.50000000e-01,1.29693009e-02
2.60000000e-01,1.30996445e-02
2.70000000e-01,1.32312981e-02
2.80000000e-01,1.33642749e-02
2.90000000e-01,1.34985881e-02
3.00000000e-01,1.36342511e-02
3.10000000e-01,1.37712776e-02
3.20000000e-01,1.39096813e-02
3.30000000e-01,1.40494759e-02
3.40000000e-01,1.41906755e-02
3.50000000e-01,1.43332941e-02
3.60000000e-01,1.44773461e-02
3.70000000e-01,1.46228459e-02
3.80000000e-01,1.47698079e-02
3.90000000e-01,1.49182470e-02
4.00000000e-01,1.50681779e-02
4.10000000e-01,1.52196156e-02
4.20000000e-01,1.53725752e-02
4.30000000e-01,1.55270722e-02
4.40000000e-01,1.56831219e-02
4.50000000e-01,1.58407398e-02
4.60000000e-01,1.59999419e-02
4.70000000e-01,1.61607440e-02
4.80000000e-01,1.63231622e-02
4.90000000e-01,1.64872127e-02
5.00000000e-01,1.66529119e-02
5.10000000e-01,1.68202765e-02
5.20000000e-01,1.69893231e-02
5.30000000e-01,1.71600686e-02
5.40000000e-01,1.73325302e-02
5.50000000e-01,1.75067250e-02
5.60000000e-01,1.76826705e-02
5.70000000e-01,1.78603843e-02
5.80000000e-01,1.80398842e-02
5.90000000e-01,1.82211880e-02
6.00000000e-01,1.84043140e-02
6.10000000e-01,1.85892804e-02
6.20000000e-01,1.87761058e-02
6.30000000e-01,1.89648088e-02
6.40000000e-01,1.91554083e-02
6.50000000e-01,1.93479233e-02
6.60000000e-01,1.95423732e-02
6.70000000e-01,1.97387773e-02
6.80000000e-01,1.99371553e-02
6.90000000e-01,2.01375271e-02
7.00000000e-01,2.03399126e-02
7.10000000e-01,2.05443321e-02
7.20000000e-01,2.07508061e-02
7.30000000e-01,2.09593551e-02
7.40000000e-01,2.11700002e-02
7.50000000e-01,2.13827622e-02
7.60000000e-01,2.15976625e-02
7.70000000e-01,2.18147227e-02
7.80000000e-01,2.20339643e-02
7.90000000e-01,2.22554093e-02
8.00000000e-01,2.24790799e-02
8.10000000e-01,2.27049984e-02
8.20000000e-01,2.29331874e-02
8.30000000e-01,2.31636698e-02
8.40000000e-01,2.33964685e-02
8.50000000e-01,2.36316069e-02
8.60000000e-01,2.38691085e-02
8.70000000e-01,2.41089971e-02
8.80000000e-01,2.43512965e-02
8.90000000e-01,2.45960311e-02
9.00000000e-01,2.48432253e-02
9.10000000e-01,2.50929039e-02
9.20000000e-01,2.53450918e-02
9.30000000e-01,2.55998142e-02
9.40000000e-01,2.58570966e-02
9.50000000e-01,2.61169647e-02
9.60000000e-01,2.63794446e-02
9.70000000e-01,2.66445624e-02
9.80000000e-01,2.69123447e-02
9.90000000e-01,2.71828183e-02
1.00000000e+00,2.74560101e-02
1.01000000e+00,2.77319476e-02
1.02000000e+00,2.80106583e-02
1.03000000e+00,2.82921701e-02
1.04000000e+00,2.85765112e-02
1.05000000e+00,2.88637099e-02
1.06000000e+00,2.91537950e-02
1.07000000e+00,2.94467955e-02
1.08000000e+00,2.97427407e-02
1.09000000e+00,3.00416602e-02
1.10000000e+00,3.03435839e-02
1.11000000e+00,3.06485420e-02
1.12000000e+00,3.09565650e-02
1.13000000e+00,3.12676836e-02
1.14000000e+00,3.15819291e-02
1.15000000e+00,3.18993328e-02
1.16000000e+00,3.22199264e-02
1.17000000e+00,3.25437420e-02
1.18000000e+00,3.28708121e-02
1.19000000e+00,3.32011692e-02
1.20000000e+00,3.35348465e-02
1.21000000e+00,3.38718773e-02
1.22000000e+00,3.42122954e-02
1.23000000e+00,3.45561346e-02
1.24000000e+00,3.49034296e-02
1.25000000e+00,3.52542149e-02
1.26000000e+00,3.56085256e-02
1.27000000e+00,3.59663973e-02
1.28000000e+00,3.63278656e-02
1.29000000e+00,3.66929667e-02
1.30000000e+00,3.70617371e-02
1.31000000e+00,3.74342138e-02
1.32000000e+00,3.78104339e-02
1.33000000e+00,3.81904350e-02
1.34000000e+00,3.85742553e-02
1.35000000e+00,3.89619330e-02
1.36000000e+00,3.93535070e-02
1.37000000e+00,3.97490163e-02
1.38000000e+00,4.01485005e-02
1.39000000e+00,4.05519997e-02
1.40000000e+00,4.09595540e-02
1.41000000e+00,4.13712044e-02
1.42000000e+00,4.17869919e-02
1.43000000e+00,4.22069582e-02
1.44000000e+00,4.26311451e-02
1.45000000e+00,4.30595953e-02
1.46000000e+00,4.34923514e-02
1.47000000e+00,4.39294568e-02
1.48000000e+00,4.43709552e-02
1.49000000e+00,4.48168907e-02
1.50000000e+00,4.52673079e-02
1.51000000e+00,4.57222519e-02
1.52000000e+00,4.61817682e-02
1.53000000e+00,4.66459027e-02
1.54000000e+00,4.71147018e-02
1.55000000e+00,4.75882124e-02
1.56000000e+00,4.80664819e-02
1.57000000e+00,4.85495581e-02
1.58000000e+00,4.90374893e-02
1.59000000e+00,4.95303242e-02
1.60000000e+00,5.00281123e-02
1.61000000e+00,5.05309032e-02
1.62000000e+00,5.10387472e-02
1.63000000e+00,5.15516951e-02
1.64000000e+00,5.20697983e-02
1.65000000e+00,5.25931084e-02
1.66000000e+00,5.31216780e-02
1.67000000e+00,5.36555597e-02
1.68000000e+00,5.41948070e-02
1.69000000e+00,5.47394739e-02
1.70000000e+00,5.52896148e-02
1.71000000e+00,5.58452846e-02
1.72000000e+00,5.64065391e-02
1.73000000e+00,5.69734342e-02
1.74000000e+00,5.75460268e-02
1.75000000e+00,5.81243739e-02
1.76000000e+00,5.87085336e-02
1.77000000e+00,5.92985642e-02
1.78000000e+00,5.98945247e-02
1.79000000e+00,6.04964746e-02
1.80000000e+00,6.11044743e-02
1.81000000e+00,6.17185845e-02
1.82000000e+00,6.23388666e-02
1.83000000e+00,6.29653826e-02
1.84000000e+00,6.35981952e-02
1.85000000e+00,6.42373677e-02
1.86000000e+00,6.48829640e-02
1.87000000e+00,6.55350486e-02
1.88000000e+00,6.61936868e-02
1.89000000e+00,6.68589444e-02
1.90000000e+00,6.75308880e-02
1.91000000e+00,6.82095847e-02
1.92000000e+00,6.88951024e-02
1.93000000e+00,6.95875097e-02
1.94000000e+00,7.02868758e-02
1.95000000e+00,7.09932706e-02
1.96000000e+00,7.17067649e-02
1.97000000e+00,7.24274298e-02
1.98000000e+00,7.31553376e-02
1.99000000e+00,7.38905610e-02
2.00000000e+00,7.46331735e-02
2.01000000e+00,7.53832493e-02
2.02000000e+00,7.61408636e-02
2.03000000e+00,7.69060920e-02
2.04000000e+00,7.76790110e-02
2.05000000e+00,7.84596981e-02
2.06000000e+00,7.92482312e-02
2.07000000e+00,8.00446891e-02
2.08000000e+00,8.08491516e-02
2.09000000e+00,8.16616991e-02
2.10000000e+00,8.24824128e-02
2.11000000e+00,8.33113749e-02
2.12000000e+00,8.41486681e-02
2.13000000e+00,8.49943763e-02
2.14000000e+00,8.58485840e-02
2.15000000e+00,8.67113766e-02
2.16000000e+00,8.75828404e-02
2.17000000e+00,8.84630626e-02
2.18000000e+00,8.93521311e-02
2.19000000e+00,9.02501350e-02
2.20000000e+00,9.11571639e-02
2.21000000e+00,9.20733086e-02
2.22000000e+00,9.29986608e-02
2.23000000e+00,9.39333129e-02
2.24000000e+00,9.48773583e-02
2.25000000e+00,9.58308916e-02
2.26000000e+00,9.67940081e-02
2.27000000e+00,9.77668041e-02
2.28000000e+00,9.87493768e-02
2.29000000e+00,9.97418245e-02
2.30000000e+00,1.00744247e-01
2.31000000e+00,1.01756743e-01
2.32000000e+00,1.02779415e-01
2.33000000e+00,1.03812366e-01
2.34000000e+00,1.04855697e-01
2.35000000e+00,1.05909515e-01
2.36000000e+00,1.06973923e-01
2.37000000e+00,1.08049029e-01
2.38000000e+00,1.09134939e-01
2.39000000e+00,1.10231764e-01
2.40000000e+00,1.11339611e-01
2.41000000e+00,1.12458593e-01
2.42000000e+00,1.13588821e-01
2.43000000e+00,1.14730407e-01
2.44000000e+00,1.15883467e-01
2.45000000e+00,1.17048115e-01
2.46000000e+00,1.18224468e-01
2.47000000e+00,1.19412644e-01
2.48000000e+00,1.20612761e-01
2.49000000e+00,1.21824940e-01
2.50000000e+00,1.23049301e-01
2.51000000e+00,1.24285967e-01
2.52000000e+00,1.25535061e-01
2.53000000e+00,1.26796710e-01
2.54000000e+00,1.28071038e-01
2.55000000e+00,1.29358173e-01
2.56000000e+00,1.30658244e-01
2.57000000e+00,1.31971382e-01
2.58000000e+00,1.33297716e-01
2.59000000e+00,1.34637380e-01
2.60000000e+00,1.35990508e-01
2.61000000e+00,1.37357236e-01
2.62000000e+00,1.38737699e-01
2.63000000e+00,1.40132036e-01
2.64000000e+00,1.41540386e-01
2.65000000e+00,1.42962891e-01
2.66000000e+00,1.44399692e-01
2.67000000e+00,1.45850933e-01
2.68000000e+00,1.47316759e-01
2.69000000e+00,1.48797317e-01
2.70000000e+00,1.50292755e-01
2.71000000e+00,1.51803222e-01
2.72000000e+00,1.53328870e-01
2.73000000e+00,1.54869851e-01
2.74000000e+00,1.56426319e-01
2.75000000e+00,1.57998429e-01
2.76000000e+00,1.59586340e-01
2.77000000e+00,1.61190209e-01
2.78000000e+00,1.62810198e-01
2.79000000e+00,1.64446468e-01
2.80000000e+00,1.66099182e-01
2.81000000e+00,1.67768507e-01
2.82000000e+00,1.69454608e-01
2.83000000e+00,1.71157655e-01
2.84000000e+00,1.72877818e-01
2.85000000e+00,1.74615269e-01
2.86000000e+00,1.76370182e-01
2.87000000e+00,1.78142732e-01
2.88000000e+00,1.79933096e-01
2.89000000e+00,1.81741454e-01
2.90000000e+00,1.83567986e-01
2.91000000e+00,1.85412875e-01
2.92000000e+00,1.87276305e-01
2.93000000e+00,1.89158463e-01
2.94000000e+00,1.91059537e-01
2.95000000e+00,1.92979718e-01
2.96000000e+00,1.94919196e-01
2.97000000e+00,1.96878166e-01
2.98000000e+00,1.98856825e-01
2.99000000e+00,2.00855369e-01
3.00000000e+00,2.02873999e-01
3.01000000e+00,2.04912917e-01
3.02000000e+00,2.06972326e-01
3.03000000e+00,2.09052432e-01
3.04000000e+00,2.11153444e-01
3.05000000e+00,2.13275572e-01
3.06000000e+00,2.15419027e-01
3.07000000e+00,2.17584024e-01
3.08000000e+00,2.19770780e-01
3.09000000e+00,2.21979513e-01
3.10000000e+00,2.24210444e-01
3.11000000e+00,2.26463796e-01
3.12000000e+00,2.28739795e-01
3.13000000e+00,2.31038669e-01
3.14000000e+00,2.33360646e-01
3.15000000e+00,2.35705959e-01
3.16000000e+00,2.38074844e-01
3.17000000e+00,2.40467535e-01
3.18000000e+00,2.42884274e-01
3.19000000e+00,2.45325302e-01
3.20000000e+00,2.47790862e-01
3.21000000e+00,2.50281202e-01
3.22000000e+00,2.52796570e-01
3.23000000e+00,2.55337217e-01
3.24000000e+00,2.57903399e-01
3.25000000e+00,2.60495371e-01
3.26000000e+00,2.63113393e-01
3.27000000e+00,2.65757727e-01
3.28000000e+00,2.68428636e-01
3.29000000e+00,2.71126389e-01
3.30000000e+00,2.73851255e-01
3.31000000e+00,2.76603506e-01
3.32000000e+00,2.79383417e-01
3.33000000e+00,2.82191267e-01
3.34000000e+00,2.85027336e-01
3.35000000e+00,2.87891909e-01
3.36000000e+00,2.90785270e-01
3.37000000e+00,2.93707711e-01
3.38000000e+00,2.96659523e-01
3.39000000e+00,2.99641000e-01
3.40000000e+00,3.02652443e-01
3.41000000e+00,3.05694150e-01
3.42000000e+00,3.08766427e-01
3.43000000e+00,3.11869582e-01
3.44000000e+00,3.15003923e-01
3.45000000e+00,3.18169765e-01
3.46000000e+00,3.21367424e-01
3.47000000e+00,3.24597221e-01
3.48000000e+00,3.27859477e-01
3.49000000e+00,3.31154519e-01
3.50000000e+00,3.34482678e-01
3.51000000e+00,3.37844285e-01
3.52000000e+00,3.41239676e-01
3.53000000e+00,3.44669192e-01
3.54000000e+00,3.48133175e-01
3.55000000e+00,3.51631971e-01
3.56000000e+00,3.55165931e-01
3.57000000e+00,3.58735408e-01
3.58000000e+00,3.62340759e-01
3.59000000e+00,3.65982344e-01
3.60000000e+00,3.69660528e-01
3.61000000e+00,3.73375678e-01
3.62000000e+00,3.77128166e-01
3.63000000e+00,3.80918367e-01
3.64000000e+00,3.84746660e-01
3.65000000e+00,3.88613429e-01
3.66000000e+00,3.92519058e-01
3.67000000e+00,3.96463941e-01
3.68000000e+00,4.00448469e-01
3.69000000e+00,4.04473043e-01
3.70000000e+00,4.08538065e-01
3.71000000e+00,4.12643941e-01
3.72000000e+00,4.16791082e-01
3.73000000e+00,4.20979902e-01
3.74000000e+00,4.25210820e-01
3.75000000e+00,4.29484260e-01
3.76000000e+00,4.33800648e-01
3.77000000e+00,4.38160417e-01
3.78000000e+00,4.42564003e-01
3.79000000e+00,4.47011845e-01
3.80000000e+00,4.51504389e-01
3.81000000e+00,4.56042083e-01
3.82000000e+00,4.60625382e-01
3.83000000e+00,4.65254744e-01
3.84000000e+00,4.69930632e-01
3.85000000e+00,4.74653514e-01
3.86000000e+00,4.79423861e-01
3.87000000e+00,4.84242151e-01
3.88000000e+00,4.89108865e-01
3.89000000e+00,4.94024491e-01
3.90000000e+00,4.98989520e-01
3.91000000e+00,5.04004448e-01
3.92000000e+00,5.09069777e-01
3.93000000e+00,5.14186013e-01
3.94000000e+00,5.19353668e-01
3.95000000e+00,5.24573259e-01
3.96000000e+00,5.29845308e-01
3.97000000e+00,5.35170342e-01
3.98000000e+00,5.40548893e-01
3.99000000e+00,5.45981500e-01
4.00000000e+00,5.51468705e-01
4.01000000e+00,5.57011058e-01
4.02000000e+00,5.62609112e-01
4.03000000e+00,5.68263428e-01
4.04000000e+00,5.73974570e-01
4.05000000e+00,5.79743111e-01
4.06000000e+00,5.85569626e-01
4.07000000e+00,5.91454698e-01
4.08000000e+00,5.97398917e-01
4.09000000e+00,6.03402876e-01
4.10000000e+00,6.09467175e-01
4.11000000e+00,6.15592422e-01
4.12000000e+00,6.21779229e-01
4.13000000e+00,6.28028214e-01
4.14000000e+00,6.34340003e-01
4.15000000e+00,6.40715226e-01
4.16000000e+00,6.47154521e-01
4.17000000e+00,6.53658532e-01
4.18000000e+00,6.60227909e-01
4.19000000e+00,6.66863310e-01
4.20000000e+00,6.73565398e-01
4.21000000e+00,6.80334843e-01
4.22000000e+00,6.87172321e-01
4.23000000e+00,6.94078518e-01
4.24000000e+00,7.01054123e-01
4.25000000e+00,7.08099834e-01
4.26000000e+00,7.15216356e-01
4.27000000e+00,7.22404400e-01
4.28000000e+00,7.29664685e-01
4.29000000e+00,7.36997937e-01
4.30000000e+00,7.44404889e-01
4.31000000e+00,7.51886283e-01
4.32000000e+00,7.59442865e-01
4.33000000e+00,7.67075393e-01
4.34000000e+00,7.74784629e-01
4.35000000e+00,7.82571344e-01
4.36000000e+00,7.90436317e-01
4.37000000e+00,7.98380334e-01
4.38000000e+00,8.06404190e-01
4.39000000e+00,8.14508686e-01
4.40000000e+00,8.22694635e-01
4.41000000e+00,8.30962853e-01
4.42000000e+00,8.39314169e-01
4.43000000e+00,8.47749416e-01
4.44000000e+00,8.56269440e-01
4.45000000e+00,8.64875091e-01
4.46000000e+00,8.73567230e-01
4.47000000e+00,8.82346726e-01
4.48000000e+00,8.91214458e-01
4.49000000e+00,9.00171313e-01
4.50000000e+00,9.09218185e-01
4.51000000e+00,9.18355979e-01
4.52000000e+00,9.27585610e-01
4.53000000e+00,9.36908001e-01
4.54000000e+00,9.46324083e-01
4.55000000e+00,9.55834798e-01
4.56000000e+00,9.65441097e-01
4.57000000e+00,9.75143942e-01
4.58000000e+00,9.84944301e-01
4.59000000e+00,9.94843156e-01
4.60000000e+00,1.00484150e+00
4.61000000e+00,1.01494032e+00
4.62000000e+00,1.02514064e+00
4.63000000e+00,1.03544348e+00
4.64000000e+00,1.04584986e+00
4.65000000e+00,1.05636082e+00
4.66000000e+00,1.06697742e+00
4.67000000e+00,1.07770073e+00
4.68000000e+00,1.08853180e+00
4.69000000e+00,1.09947172e+00
4.70000000e+00,1.11052160e+00
4.71000000e+00,1.12168253e+00
4.72000000e+00,1.13295562e+00
4.73000000e+00,1.14434202e+00
4.74000000e+00,1.15584284e+00
4.75000000e+00,1.16745926e+00
4.76000000e+00,1.17919242e+00
4.77000000e+00,1.19104350e+00
4.78000000e+00,1.20301369e+00
4.79000000e+00,1.21510417e+00
4.80000000e+00,1.22731617e+00
4.81000000e+00,1.23965091e+00
4.82000000e+00,1.25210961e+00
4.83000000e+00,1.26469352e+00
4.84000000e+00,1.27740390e+00
4.85000000e+00,1.29024202e+00
4.86000000e+00,1.30320917e+00
4.87000000e+00,1.31630664e+00
4.88000000e+00,1.32953574e+00
4.89000000e+00,1.34289780e+00
4.90000000e+00,1.35639414e+00
4.91000000e+00,1.37002613e+00
4.92000000e+00,1.38379512e+00
4.93000000e+00,1.39770250e+00
4.94000000e+00,1.41174964e+00
4.95000000e+00,1.42593796e+00
4.96000000e+00,1.44026887e+00
4.97000000e+00,1.45474382e+00
4.98000000e+00,1.46936423e+00
4.99000000e+00,1.48413159e+00
5.00000000e+00,1.49904736e+00
5.01000000e+00,1.51411304e+00
5.02000000e+00,1.52933013e+00
5.03000000e+00,1.54470015e+00
5.04000000e+00,1.56022464e+00
5.05000000e+00,1.57590516e+00
5.06000000e+00,1.59174327e+00
5.07000000e+00,1.60774056e+00
5.08000000e+00,1.62389862e+00
5.09000000e+00,1.64021907e+00
5.10000000e+00,1.65670355e+00
5.11000000e+00,1.67335370e+00
5.12000000e+00,1.69017118e+00
5.13000000e+00,1.70715768e+00
5.14000000e+00,1.72431490e+00
5.15000000e+00,1.74164456e+00
5.16000000e+00,1.75914837e+00
5.17000000e+00,1.77682811e+00
5.18000000e+00,1.79468553e+00
5.19000000e+00,1.81272242e+00
5.20000000e+00,1.83094058e+00
5.21000000e+00,1.84934184e+00
5.22000000e+00,1.86792803e+00
5.23000000e+00,1.88670102e+00
5.24000000e+00,1.90566268e+00
5.25000000e+00,1.92481491e+00
5.26000000e+00,1.94415962e+00
5.27000000e+00,1.96369875e+00
5.28000000e+00,1.98343425e+00
5.29000000e+00,2.00336810e+00
5.30000000e+00,2.02350228e+00
5.31000000e+00,2.04383882e+00
5.32000000e+00,2.06437974e+00
5.33000000e+00,2.08512710e+00
5.34000000e+00,2.10608298e+00
5.35000000e+00,2.12724946e+00
5.36000000e+00,2.14862868e+00
5.37000000e+00,2.17022275e+00
5.38000000e+00,2.19203385e+00
5.39000000e+00,2.21406416e+00
5.40000000e+00,2.23631588e+00
5.41000000e+00,2.25879122e+00
5.42000000e+00,2.28149245e+00
5.43000000e+00,2.30442183e+00
5.44000000e+00,2.32758166e+00
5.45000000e+00,2.35097424e+00
5.46000000e+00,2.37460193e+00
5.47000000e+00,2.39846707e+00
5.48000000e+00,2.42257207e+00
5.49000000e+00,2.44691932e+00
5.50000000e+00,2.47151127e+00
5.51000000e+00,2.49635037e+00
5.52000000e+00,2.52143911e+00
5.53000000e+00,2.54677999e+00
5.54000000e+00,2.57237556e+00
5.55000000e+00,2.59822836e+00
5.56000000e+00,2.62434099e+00
5.57000000e+00,2.65071606e+00
5.58000000e+00,2.67735620e+00
5.59000000e+00,2.70426407e+00
5.60000000e+00,2.73144238e+00
5.61000000e+00,2.75889383e+00
5.62000000e+00,2.78662118e+00
5.63000000e+00,2.81462718e+00
5.64000000e+00,2.84291466e+00
5.65000000e+00,2.87148642e+00
5.66000000e+00,2.90034534e+00
5.67000000e+00,2.92949430e+00
5.68000000e+00,2.95893621e+00
5.69000000e+00,2.98867401e+00
5.70000000e+00,3.01871068e+00
5.71000000e+00,3.04904923e+00
5.72000000e+00,3.07969268e+00
5.73000000e+00,3.11064411e+00
5.74000000e+00,3.14190660e+00
5.75000000e+00,3.17348329e+00
5.76000000e+00,3.20537732e+00
5.77000000e+00,3.23759190e+00
5.78000000e+00,3.27013024e+00
5.79000000e+00,3.30299560e+00
5.80000000e+00,3.33619126e+00
5.81000000e+00,3.36972053e+00
5.82000000e+00,3.40358679e+00
5.83000000e+00,3.43779340e+00
5.84000000e+00,3.47234380e+00
5.85000000e+00,3.50724144e+00
5.86000000e+00,3.54248980e+00
5.87000000e+00,3.57809242e+00
5.88000000e+00,3.61405284e+00
5.89000000e+00,3.65037468e+00
5.90000000e+00,3.68706155e+00
5.91000000e+00,3.72411714e+00
5.92000000e+00,3.76154514e+00
5.93000000e+00,3.79934929e+00
5.94000000e+00,3.83753339e+00
5.95000000e+00,3.87610124e+00
5.96000000e+00,3.91505671e+00
5.97000000e+00,3.95440368e+00
5.98000000e+00,3.99414610e+00
5.99000000e+00,4.03428793e+00
6.00000000e+00,4.07483320e+00
6.01000000e+00,4.11578596e+00
6.02000000e+00,4.15715029e+00
6.03000000e+00,4.19893035e+00
6.04000000e+00,4.24113030e+00
6.05000000e+00,4.28375437e+00
6.06000000e+00,4.32680681e+00
6.07000000e+00,4.37029194e+00
6.08000000e+00,4.41421411e+00
6.09000000e+00,4.45857770e+00
6.10000000e+00,4.50338715e+00
6.11000000e+00,4.54864694e+00
6.12000000e+00,4.59436160e+00
6.13000000e+00,4.64053571e+00
6.14000000e+00,4.68717387e+00
6.15000000e+00,4.73428075e+00
6.16000000e+00,4.78186106e+00
6.17000000e+00,4.82991956e+00
6.18000000e+00,4.87846106e+00
6.19000000e+00,4.92749041e+00
6.20000000e+00,4.97701251e+00
6.21000000e+00,5.02703232e+00
6.22000000e+00,5.07755483e+00
6.23000000e+00,5.12858511e+00
6.24000000e+00,5.18012824e+00
6.25000000e+00,5.23218940e+00
6.26000000e+00,5.28477378e+00
6.27000000e+00,5.33788664e+00
6.28000000e+00,5.39153329e+00
6.29000000e+00,5.44571910e+00
6.30000000e+00,5.50044949e+00
6.31000000e+00,5.55572992e+00
6.32000000e+00,5.61156594e+00
6.33000000e+00,5.66796311e+00
6.34000000e+00,5.72492709e+00
6.35000000e+00,5.78246356e+00
6.36000000e+00,5.84057829e+00
6.37000000e+00,5.89927707e+00
6.38000000e+00,5.95856579e+00
6.39000000e+00,6.01845038e+00
6.40000000e+00,6.07893681e+00
6.41000000e+00,6.14003114e+00
6.42000000e+00,6.20173948e+00
6.43000000e+00,6.26406799e+00
6.44000000e+00,6.32702292e+00
6.45000000e+00,6.39061056e+00
6.46000000e+00,6.45483727e+00
6.47000000e+00,6.51970946e+00
6.48000000e+00,6.58523363e+00
6.49000000e+00,6.65141633e+00
6.50000000e+00,6.71826417e+00
6.51000000e+00,6.78578385e+00
6.52000000e+00,6.85398211e+00
6.53000000e+00,6.92286578e+00
6.54000000e+00,6.99244173e+00
6.55000000e+00,7.06271694e+00
6.56000000e+00,7.13369843e+00
6.57000000e+00,7.20539329e+00
6.58000000e+00,7.27780870e+00
6.59000000e+00,7.35095189e+00
6.60000000e+00,7.42483018e+00
6.61000000e+00,7.49945097e+00
6.62000000e+00,7.57482170e+00
6.63000000e+00,7.65094993e+00
6.64000000e+00,7.72784325e+00
6.65000000e+00,7.80550937e+00
